temps (s)	x_vérin (mm)	a_barre (°)
0	-83.037513	33.232694
0.0008	-83.024154	33.226825
0.0016	-83.007455	33.220956
0.0024	-82.990757	33.216065
0.0032	-82.977398	33.210196
0.004	-82.960699	33.204327
0.0048	-82.94734	33.198457
0.0056	-82.927302	33.192588
0.0064	-82.913943	33.186719
0.0072	-82.900584	33.18085
0.008	-82.883886	33.174981
0.0088	-82.870527	33.168133
0.0096	-82.853828	33.162264
0.0104	-82.83713	33.156395
0.0112	-82.820431	33.150526
0.012	-82.807072	33.144657
0.0128	-82.790373	33.138788
0.0136	-82.773675	33.133897
0.0144	-82.756976	33.128027
0.0152	-82.740278	33.122158
0.016	-82.723579	33.117267
0.0168	-82.70688	33.111398
0.0176	-82.690182	33.105529
0.0184	-82.673483	33.09966
0.0192	-82.656785	33.092813
0.02	-82.643426	33.086943
0.0208	-82.630067	33.081074
0.0216	-82.613368	33.076183
0.0224	-82.59667	33.071292
0.0232	-82.583311	33.064445
0.024	-82.566612	33.059554
0.0248	-82.549914	33.054663
0.0256	-82.529875	33.047816
0.0264	-82.516516	33.041947
0.0272	-82.496478	33.037056
0.028	-82.47644	33.030208
0.0288	-82.463081	33.023361
0.0296	-82.446382	33.017492
0.0304	-82.433023	33.011623
0.0312	-82.416325	33.005753
0.032	-82.399626	32.999884
0.0328	-82.382928	32.994993
0.0336	-82.366229	32.990102
0.0344	-82.34953	32.984233
0.0352	-82.332832	32.979342
0.036	-82.316133	32.972495
0.0368	-82.299434	32.966626
0.0376	-82.282736	32.961735
0.0384	-82.266037	32.954887
0.0392	-82.249339	32.949996
0.04	-82.23264	32.945105
0.0408	-82.215941	32.939236
0.0416	-82.199243	32.934345
0.0424	-82.179205	32.928476
0.0432	-82.162506	32.922607
0.044	-82.145807	32.916738
0.0448	-82.129109	32.910869
0.0456	-82.11575	32.905
0.0464	-82.102391	32.89913
0.0472	-82.089032	32.893261
0.048	-82.072333	32.887392
0.0488	-82.055635	32.881523
0.0496	-82.035597	32.875654
0.0504	-82.022238	32.869785
0.0512	-82.008879	32.863915
0.052	-81.99552	32.859024
0.0528	-81.978821	32.852177
0.0536	-81.962123	32.847286
0.0544	-81.945424	32.842395
0.0552	-81.932065	32.835548
0.056	-81.915367	32.831635
0.0568	-81.898668	32.825766
0.0576	-81.881969	32.819897
0.0584	-81.865271	32.815984
0.0592	-81.848572	32.810115
0.06	-81.835213	32.804246
0.0608	-81.818515	32.798377
0.0616	-81.801816	32.793486
0.0624	-81.785117	32.787616
0.0632	-81.768419	32.780769
0.064	-81.75172	32.775878
0.0648	-81.735022	32.770009
0.0656	-81.718323	32.76414
0.0664	-81.701624	32.759249
0.0672	-81.684926	32.75338
0.068	-81.668227	32.747511
0.0688	-81.651529	32.74262
0.0696	-81.63483	32.73675
0.0704	-81.618131	32.730881
0.0712	-81.601433	32.724034
0.072	-81.581394	32.717187
0.0728	-81.564696	32.712296
0.0736	-81.544658	32.705448
0.0744	-81.527959	32.700557
0.0752	-81.51126	32.694688
0.076	-81.494562	32.688819
0.0768	-81.477863	32.683928
0.0776	-81.464504	32.678059
0.0784	-81.451145	32.67219
0.0792	-81.434447	32.666321
0.08	-81.414408	32.660451
0.0808	-81.39437	32.654582
0.0816	-81.377671	32.648713
0.0824	-81.360973	32.642844
0.0832	-81.344274	32.636975
0.084	-81.327576	32.631106
0.0848	-81.307537	32.626215
0.0856	-81.290839	32.620345
0.0864	-81.27414	32.613498
0.0872	-81.257442	32.607629
0.088	-81.240743	32.60176
0.0888	-81.224044	32.595891
0.0896	-81.207346	32.590021
0.0904	-81.193987	32.585131
0.0912	-81.180628	32.579261
0.092	-81.163929	32.573392
0.0928	-81.147231	32.566545
0.0936	-81.130532	32.560676
0.0944	-81.113834	32.554807
0.0952	-81.093795	32.548937
0.096	-81.073757	32.54209
0.0968	-81.053719	32.536221
0.0976	-81.03702	32.530352
0.0984	-81.016982	32.524483
0.0992	-80.996943	32.518613
0.1	-80.976905	32.512744
0.1008	-80.956867	32.506875
0.1016	-80.940168	32.500028
0.1024	-80.923469	32.494159
0.1032	-80.903431	32.488289
0.104	-80.886732	32.48242
0.1048	-80.870034	32.476551
0.1056	-80.853335	32.470682
0.1064	-80.833297	32.464813
0.1072	-80.816598	32.458944
0.108	-80.7999	32.453074
0.1088	-80.783201	32.447205
0.1096	-80.763163	32.441336
0.1104	-80.746464	32.435467
0.1112	-80.729766	32.429598
0.112	-80.713067	32.423729
0.1128	-80.696368	32.41786
0.1136	-80.67967	32.41199
0.1144	-80.662971	32.406121
0.1152	-80.646273	32.400252
0.116	-80.629574	32.393405
0.1168	-80.612875	32.387536
0.1176	-80.596177	32.380688
0.1184	-80.579478	32.373841
0.1192	-80.56278	32.367972
0.12	-80.542741	32.361124
0.1208	-80.522703	32.355255
0.1216	-80.502665	32.348408
0.1224	-80.485966	32.342539
0.1232	-80.465928	32.33667
0.124	-80.449229	32.329822
0.1248	-80.43253	32.323953
0.1256	-80.415832	32.317106
0.1264	-80.399133	32.311237
0.1272	-80.379095	32.306346
0.128	-80.359057	32.300476
0.1288	-80.342358	32.294607
0.1296	-80.32232	32.28776
0.1304	-80.305621	32.281891
0.1312	-80.288922	32.275043
0.132	-80.272224	32.269174
0.1328	-80.252185	32.263305
0.1336	-80.235487	32.256458
0.1344	-80.218788	32.250589
0.1352	-80.20209	32.244719
0.136	-80.185391	32.237872
0.1368	-80.168692	32.232981
0.1376	-80.151994	32.227112
0.1384	-80.135295	32.220265
0.1392	-80.118597	32.214395
0.14	-80.101898	32.207548
0.1408	-80.085199	32.201679
0.1416	-80.068501	32.19581
0.1424	-80.051802	32.189941
0.1432	-80.035104	32.183093
0.144	-80.018405	32.177224
0.1448	-80.005046	32.171355
0.1456	-79.991687	32.164508
0.1464	-79.978328	32.158638
0.1472	-79.96163	32.152769
0.148	-79.944931	32.1469
0.1488	-79.931572	32.141031
0.1496	-79.914874	32.135162
0.1504	-79.901515	32.129293
0.1512	-79.884816	32.123424
0.152	-79.868118	32.117554
0.1528	-79.851419	32.110707
0.1536	-79.83472	32.104838
0.1544	-79.818022	32.099947
0.1552	-79.801323	32.094078
0.156	-79.784625	32.08723
0.1568	-79.767926	32.081361
0.1576	-79.751227	32.075492
0.1584	-79.734529	32.069623
0.1592	-79.71783	32.063754
0.16	-79.701132	32.056906
0.1608	-79.684433	32.050059
0.1616	-79.667734	32.04419
0.1624	-79.651036	32.038321
0.1632	-79.637677	32.031473
0.164	-79.620978	32.026582
0.1648	-79.60428	32.019735
0.1656	-79.587581	32.013866
0.1664	-79.570882	32.007997
0.1672	-79.554184	32.002128
0.168	-79.537485	31.99528
0.1688	-79.520787	31.988433
0.1696	-79.504088	31.982564
0.1704	-79.487389	31.974738
0.1712	-79.470691	31.968869
0.172	-79.453992	31.963
0.1728	-79.437294	31.956153
0.1736	-79.420595	31.951262
0.1744	-79.403896	31.944414
0.1752	-79.387198	31.938545
0.176	-79.367159	31.931698
0.1768	-79.350461	31.92485
0.1776	-79.333762	31.918981
0.1784	-79.317064	31.912134
0.1792	-79.300365	31.906265
0.18	-79.283666	31.899417
0.1808	-79.263628	31.894526
0.1816	-79.246929	31.887679
0.1824	-79.230231	31.880832
0.1832	-79.213532	31.874963
0.184	-79.196834	31.868115
0.1848	-79.180135	31.862246
0.1856	-79.163436	31.855399
0.1864	-79.146738	31.848551
0.1872	-79.130039	31.842682
0.188	-79.113341	31.836813
0.1888	-79.096642	31.830944
0.1896	-79.079943	31.824097
0.1904	-79.063245	31.819206
0.1912	-79.046546	31.812358
0.192	-79.029848	31.805511
0.1928	-79.016489	31.80062
0.1936	-78.99979	31.793773
0.1944	-78.986431	31.787903
0.1952	-78.969733	31.782034
0.196	-78.949694	31.775187
0.1968	-78.932996	31.76834
0.1976	-78.916297	31.76247
0.1984	-78.896259	31.756601
0.1992	-78.87622	31.749754
0.2	-78.859522	31.743885
0.2008	-78.846163	31.737037
0.2016	-78.829464	31.73019
0.2024	-78.812766	31.725299
0.2032	-78.799407	31.718452
0.204	-78.782708	31.711604
0.2048	-78.76601	31.705735
0.2056	-78.749311	31.698888
0.2064	-78.732612	31.692041
0.2072	-78.712574	31.686171
0.208	-78.695875	31.679324
0.2088	-78.679177	31.672477
0.2096	-78.662478	31.666608
0.2104	-78.64578	31.65976
0.2112	-78.625741	31.652913
0.212	-78.609043	31.647044
0.2128	-78.592344	31.641175
0.2136	-78.572306	31.634327
0.2144	-78.552267	31.628458
0.2152	-78.535569	31.622589
0.216	-78.52221	31.61672
0.2168	-78.505511	31.610851
0.2176	-78.492152	31.604981
0.2184	-78.472114	31.599112
0.2192	-78.455416	31.593243
0.22	-78.442057	31.587374
0.2208	-78.425358	31.581505
0.2216	-78.408659	31.575636
0.2224	-78.391961	31.569766
0.2232	-78.378602	31.563897
0.224	-78.361903	31.558028
0.2248	-78.341865	31.551181
0.2256	-78.321827	31.544333
0.2264	-78.305128	31.538464
0.2272	-78.28843	31.532595
0.228	-78.271731	31.526726
0.2288	-78.255032	31.519879
0.2296	-78.238334	31.514009
0.2304	-78.221635	31.509118
0.2312	-78.204936	31.502271
0.232	-78.188238	31.496402
0.2328	-78.171539	31.491511
0.2336	-78.154841	31.485642
0.2344	-78.138142	31.478795
0.2352	-78.121443	31.473904
0.236	-78.104745	31.468034
0.2368	-78.088046	31.462165
0.2376	-78.071348	31.457274
0.2384	-78.054649	31.451405
0.2392	-78.03795	31.446514
0.24	-78.021252	31.440645
0.2408	-78.007893	31.434776
0.2416	-77.994534	31.428907
0.2424	-77.981175	31.424016
0.2432	-77.961137	31.418147
0.244	-77.947778	31.413256
0.2448	-77.931079	31.407386
0.2456	-77.911041	31.400539
0.2464	-77.891003	31.395648
0.2472	-77.877644	31.388801
0.248	-77.864285	31.382932
0.2488	-77.850926	31.378041
0.2496	-77.834227	31.37315
0.2504	-77.820869	31.367281
0.2512	-77.80417	31.361411
0.252	-77.787471	31.355542
0.2528	-77.770773	31.349673
0.2536	-77.754074	31.343804
0.2544	-77.737376	31.336957
0.2552	-77.720677	31.331087
0.256	-77.703978	31.326196
0.2568	-77.68728	31.319349
0.2576	-77.670581	31.31348
0.2584	-77.653883	31.307611
0.2592	-77.637184	31.301742
0.26	-77.620485	31.295872
0.2608	-77.603787	31.290003
0.2616	-77.587088	31.284134
0.2624	-77.570389	31.278265
0.2632	-77.553691	31.273374
0.264	-77.536992	31.267505
0.2648	-77.520294	31.262614
0.2656	-77.503595	31.256745
0.2664	-77.486896	31.250876
0.2672	-77.470198	31.245006
0.268	-77.453499	31.239137
0.2688	-77.44014	31.233268
0.2696	-77.423442	31.226421
0.2704	-77.406743	31.220552
0.2712	-77.386705	31.214682
0.272	-77.366667	31.208813
0.2728	-77.349968	31.201966
0.2736	-77.333269	31.196097
0.2744	-77.316571	31.190228
0.2752	-77.303212	31.185337
0.276	-77.286513	31.179468
0.2768	-77.269815	31.173598
0.2776	-77.253116	31.167729
0.2784	-77.236417	31.16186
0.2792	-77.219719	31.155991
0.28	-77.20302	31.150122
0.2808	-77.186322	31.144253
0.2816	-77.169623	31.138383
0.2824	-77.152924	31.132514
0.2832	-77.136226	31.126645
0.284	-77.119527	31.121754
0.2848	-77.102829	31.115885
0.2856	-77.08613	31.109038
0.2864	-77.066092	31.103169
0.2872	-77.049393	31.096321
0.288	-77.032694	31.090452
0.2888	-77.015996	31.083605
0.2896	-76.999297	31.077735
0.2904	-76.979259	31.071866
0.2912	-76.9659	31.065997
0.292	-76.945862	31.060128
0.2928	-76.925823	31.054259
0.2936	-76.905785	31.04839
0.2944	-76.889086	31.041542
0.2952	-76.872388	31.036651
0.296	-76.855689	31.029804
0.2968	-76.838991	31.022957
0.2976	-76.822292	31.017088
0.2984	-76.805593	31.01024
0.2992	-76.788895	31.005349
0.3	-76.775536	30.99948
0.3008	-76.758837	30.993611
0.3016	-76.742139	30.987742
0.3024	-76.72544	30.981873
0.3032	-76.708741	30.975025
0.304	-76.692043	30.969156
0.3048	-76.675344	30.963287
0.3056	-76.658646	30.957418
0.3064	-76.641947	30.951549
0.3072	-76.625248	30.944701
0.308	-76.60855	30.938832
0.3088	-76.591851	30.932963
0.3096	-76.575153	30.928072
0.3104	-76.558454	30.922203
0.3112	-76.541755	30.915355
0.312	-76.521717	30.909486
0.3128	-76.505018	30.903617
0.3136	-76.48832	30.897748
0.3144	-76.468282	30.891879
0.3152	-76.448243	30.88601
0.316	-76.431545	30.879162
0.3168	-76.414846	30.873293
0.3176	-76.394808	30.865468
0.3184	-76.374769	30.859599
0.3192	-76.358071	30.853729
0.32	-76.341372	30.84786
0.3208	-76.324674	30.841013
0.3216	-76.304635	30.835144
0.3224	-76.287937	30.828296
0.3232	-76.271238	30.822427
0.324	-76.2512	30.816558
0.3248	-76.234501	30.810689
0.3256	-76.217802	30.803842
0.3264	-76.201104	30.796994
0.3272	-76.184405	30.791125
0.328	-76.171046	30.784278
0.3288	-76.154348	30.778409
0.3296	-76.137649	30.772539
0.3304	-76.120951	30.76667
0.3312	-76.104252	30.759823
0.332	-76.087553	30.753954
0.3328	-76.070855	30.747106
0.3336	-76.054156	30.740259
0.3344	-76.040797	30.733412
0.3352	-76.027438	30.726564
0.336	-76.01074	30.720695
0.3368	-75.994041	30.714826
0.3376	-75.980682	30.707979
0.3384	-75.963984	30.701131
0.3392	-75.947285	30.695262
0.34	-75.933926	30.689393
0.3408	-75.917228	30.683524
0.3416	-75.900529	30.676676
0.3424	-75.88717	30.669829
0.3432	-75.870471	30.662982
0.344	-75.850433	30.657113
0.3448	-75.833735	30.650265
0.3456	-75.820376	30.644396
0.3464	-75.803677	30.638527
0.3472	-75.786978	30.63168
0.348	-75.77028	30.624832
0.3488	-75.753581	30.619941
0.3496	-75.736883	30.61505
0.3504	-75.720184	30.608203
0.3512	-75.703485	30.603312
0.352	-75.686787	30.596465
0.3528	-75.670088	30.590596
0.3536	-75.65339	30.583748
0.3544	-75.636691	30.576901
0.3552	-75.619992	30.570053
0.356	-75.603294	30.563206
0.3568	-75.586595	30.557337
0.3576	-75.569897	30.55049
0.3584	-75.553198	30.543642
0.3592	-75.536499	30.538751
0.36	-75.519801	30.531904
0.3608	-75.503102	30.525057
0.3616	-75.486404	30.519187
0.3624	-75.469705	30.51234
0.3632	-75.453006	30.506471
0.364	-75.439647	30.500602
0.3648	-75.422949	30.493754
0.3656	-75.40625	30.487885
0.3664	-75.389552	30.482016
0.3672	-75.372853	30.475169
0.368	-75.356154	30.4693
0.3688	-75.339456	30.462452
0.3696	-75.319418	30.455605
0.3704	-75.306059	30.449736
0.3712	-75.28602	30.443867
0.372	-75.269322	30.437997
0.3728	-75.252623	30.43115
0.3736	-75.235924	30.426259
0.3744	-75.219226	30.42039
0.3752	-75.202527	30.413543
0.376	-75.185829	30.408652
0.3768	-75.17247	30.401804
0.3776	-75.155771	30.394957
0.3784	-75.139073	30.389088
0.3792	-75.122374	30.381262
0.38	-75.105675	30.375393
0.3808	-75.088977	30.368546
0.3816	-75.072278	30.362677
0.3824	-75.05558	30.355829
0.3832	-75.038881	30.34996
0.384	-75.022182	30.344091
0.3848	-75.005484	30.337244
0.3856	-74.988785	30.331374
0.3864	-74.972087	30.324527
0.3872	-74.955388	30.318658
0.388	-74.938689	30.312789
0.3888	-74.921991	30.30692
0.3896	-74.901952	30.300072
0.3904	-74.885254	30.295181
0.3912	-74.868555	30.288334
0.392	-74.855196	30.283443
0.3928	-74.838498	30.277574
0.3936	-74.825139	30.271705
0.3944	-74.80844	30.265836
0.3952	-74.791742	30.259966
0.396	-74.771703	30.253119
0.3968	-74.755005	30.246272
0.3976	-74.738306	30.239424
0.3984	-74.721607	30.232577
0.3992	-74.704909	30.226708
0.4	-74.68821	30.220839
0.4008	-74.671512	30.214969
0.4016	-74.654813	30.208122
0.4024	-74.638114	30.202253
0.4032	-74.621416	30.195406
0.404	-74.604717	30.189536
0.4048	-74.588019	30.183667
0.4056	-74.57132	30.17682
0.4064	-74.554621	30.170951
0.4072	-74.541263	30.165082
0.408	-74.524564	30.159213
0.4088	-74.507865	30.153343
0.4096	-74.491167	30.147474
0.4104	-74.474468	30.141605
0.4112	-74.461109	30.134758
0.412	-74.441071	30.128889
0.4128	-74.424372	30.123019
0.4136	-74.411013	30.11715
0.4144	-74.397654	30.111281
0.4152	-74.384296	30.105412
0.416	-74.370937	30.099543
0.4168	-74.354238	30.093674
0.4176	-74.33754	30.087804
0.4184	-74.320841	30.081935
0.4192	-74.304142	30.076066
0.42	-74.287444	30.070197
0.4208	-74.267405	30.064328
0.4216	-74.250707	30.058459
0.4224	-74.234008	30.053568
0.4232	-74.21731	30.047699
0.424	-74.200611	30.041829
0.4248	-74.183912	30.03596
0.4256	-74.167214	30.030091
0.4264	-74.150515	30.024222
0.4272	-74.133817	30.018353
0.428	-74.117118	30.012484
0.4288	-74.09708	30.006614
0.4296	-74.080381	29.999767
0.4304	-74.063682	29.993898
0.4312	-74.046984	29.987051
0.432	-74.030285	29.981181
0.4328	-74.016926	29.975312
0.4336	-74.000228	29.969443
0.4344	-73.983529	29.963574
0.4352	-73.96683	29.957705
0.436	-73.953472	29.951836
0.4368	-73.936773	29.946945
0.4376	-73.920074	29.941076
0.4384	-73.903376	29.936185
0.4392	-73.886677	29.931294
0.44	-73.869979	29.925424
0.4408	-73.85662	29.920533
0.4416	-73.839921	29.914664
0.4424	-73.823222	29.909773
0.4432	-73.806524	29.903904
0.444	-73.789825	29.898035
0.4448	-73.773127	29.893144
0.4456	-73.756428	29.887275
0.4464	-73.739729	29.881406
0.4472	-73.723031	29.875537
0.448	-73.706332	29.868689
0.4488	-73.689634	29.86282
0.4496	-73.672935	29.856951
0.4504	-73.656236	29.85206
0.4512	-73.639538	29.845213
0.452	-73.622839	29.840322
0.4528	-73.606141	29.834453
0.4536	-73.589442	29.828583
0.4544	-73.572743	29.822714
0.4552	-73.556045	29.817823
0.456	-73.539346	29.811954
0.4568	-73.519308	29.807063
0.4576	-73.502609	29.800216
0.4584	-73.485911	29.795325
0.4592	-73.469212	29.789456
0.46	-73.455853	29.784565
0.4608	-73.435815	29.778696
0.4616	-73.415777	29.771848
0.4624	-73.399078	29.765979
0.4632	-73.37904	29.76011
0.464	-73.362341	29.754241
0.4648	-73.345642	29.748372
0.4656	-73.328944	29.742502
0.4664	-73.308905	29.736633
0.4672	-73.292207	29.730764
0.468	-73.275508	29.724895
0.4688	-73.25881	29.719026
0.4696	-73.242111	29.713157
0.4704	-73.225412	29.707287
0.4712	-73.208714	29.701418
0.472	-73.192015	29.695549
0.4728	-73.175317	29.688702
0.4736	-73.158618	29.683811
0.4744	-73.141919	29.677942
0.4752	-73.125221	29.671094
0.476	-73.108522	29.665225
0.4768	-73.091824	29.659356
0.4776	-73.075125	29.653487
0.4784	-73.058426	29.648596
0.4792	-73.041728	29.642727
0.48	-73.021689	29.636858
0.4808	-73.004991	29.630988
0.4816	-72.988292	29.626097
0.4824	-72.968254	29.620228
0.4832	-72.951555	29.614359
0.484	-72.934857	29.60849
0.4848	-72.918158	29.601643
0.4856	-72.89812	29.596752
0.4864	-72.878081	29.590883
0.4872	-72.861383	29.584035
0.488	-72.844684	29.578166
0.4888	-72.827986	29.572297
0.4896	-72.807947	29.566428
0.4904	-72.791249	29.55958
0.4912	-72.77121	29.554689
0.492	-72.754512	29.54882
0.4928	-72.737813	29.542951
0.4936	-72.721115	29.537082
0.4944	-72.704416	29.531213
0.4952	-72.687717	29.525344
0.496	-72.671019	29.519474
0.4968	-72.65432	29.513605
0.4976	-72.634282	29.508714
0.4984	-72.617583	29.501867
0.4992	-72.600885	29.496976
0.5	-72.584186	29.490129
0.5008	-72.567487	29.485238
0.5016	-72.550789	29.47839
0.5024	-72.53075	29.473499
0.5032	-72.514052	29.46763
0.504	-72.497353	29.461761
0.5048	-72.480655	29.455892
0.5056	-72.460616	29.450023
0.5064	-72.440578	29.444154
0.5072	-72.423879	29.438284
0.508	-72.403841	29.431437
0.5088	-72.387142	29.425568
0.5096	-72.367104	29.418721
0.5104	-72.353745	29.41383
0.5112	-72.333707	29.406982
0.512	-72.317008	29.401113
0.5128	-72.29697	29.395244
0.5136	-72.280271	29.389375
0.5144	-72.260233	29.383506
0.5152	-72.243534	29.376658
0.516	-72.226836	29.370789
0.5168	-72.210137	29.36492
0.5176	-72.193439	29.359051
0.5184	-72.17674	29.353182
0.5192	-72.160041	29.346334
0.52	-72.143343	29.340465
0.5208	-72.126644	29.334596
0.5216	-72.109946	29.328727
0.5224	-72.093247	29.322858
0.5232	-72.076548	29.31601
0.524	-72.05985	29.310141
0.5248	-72.043151	29.304272
0.5256	-72.026453	29.298403
0.5264	-72.009754	29.292534
0.5272	-71.993055	29.286665
0.528	-71.976357	29.280795
0.5288	-71.959658	29.274926
0.5296	-71.94296	29.269057
0.5304	-71.926261	29.263188
0.5312	-71.909562	29.257319
0.532	-71.892864	29.25145
0.5328	-71.879505	29.244602
0.5336	-71.866146	29.238733
0.5344	-71.849447	29.232864
0.5352	-71.832749	29.226995
0.536	-71.81605	29.220147
0.5368	-71.799352	29.214278
0.5376	-71.785993	29.207431
0.5384	-71.772634	29.201562
0.5392	-71.759275	29.194714
0.54	-71.745916	29.188845
0.5408	-71.732557	29.181998
0.5416	-71.719198	29.176129
0.5424	-71.705839	29.17026
0.5432	-71.69248	29.16439
0.544	-71.679122	29.157543
0.5448	-71.665763	29.151674
0.5456	-71.649064	29.145805
0.5464	-71.632365	29.140914
0.5472	-71.615667	29.134067
0.548	-71.598968	29.128197
0.5488	-71.58227	29.12135
0.5496	-71.57225	29.115481
0.5504	-71.558892	29.109612
0.5512	-71.545533	29.103743
0.552	-71.528834	29.097873
0.5528	-71.512136	29.092004
0.5536	-71.495437	29.085157
0.5544	-71.478738	29.079288
0.5552	-71.46204	29.074397
0.556	-71.448681	29.067549
0.5568	-71.431982	29.06168
0.5576	-71.415284	29.054833
0.5584	-71.401925	29.047986
0.5592	-71.388566	29.04016
0.56	-71.375207	29.033313
0.5608	-71.361848	29.027443
0.5616	-71.345149	29.020596
0.5624	-71.331791	29.014727
0.5632	-71.318432	29.008858
0.564	-71.305073	29.00201
0.5648	-71.291714	28.996141
0.5656	-71.275015	28.989294
0.5664	-71.258317	28.983425
0.5672	-71.244958	28.976577
0.568	-71.231599	28.970708
0.5688	-71.21824	28.963861
0.5696	-71.201541	28.957992
0.5704	-71.184843	28.951144
0.5712	-71.171484	28.944297
0.572	-71.158125	28.938428
0.5728	-71.141426	28.932559
0.5736	-71.124728	28.92669
0.5744	-71.108029	28.92082
0.5752	-71.09467	28.914951
0.576	-71.077972	28.909082
0.5768	-71.061273	28.902235
0.5776	-71.047914	28.896366
0.5784	-71.031216	28.890497
0.5792	-71.017857	28.884627
